494
512
520
521
517
514
513
518
529
542
555
562
561
552
541
527
515
505
498
495
495
499
505
511
516
518
518
515
511
508
504
503
501
499
497
497
498
499
500
500
500
501
502
509
520
533
548
560
562
556
545
531
517
504
496
491
492
495
500
506
511
517
519
519
515
511
508
504
502
500
500
501
501
502
502
502
501
501
504
507
516
528
547
563
571
570
559
544
528
513
501
494
492
493
498
503
509
514
516
517
515
511
507
504
500
497
495
494
495
498
499
499
498
499
498
498
499
503
516
530
546
562
570
566
555
540
522
506
493
488
486
489
495
501
509
514
517
517
514
509
506
503
497
495
493
493
495
497
499
500
500
499
500
500
501
504
514
527
545
564
577
579
571
557
541
529
516
508
504
507
515
533
566
563
514
564
660
672
533
403
416
453
491
561
425
445
513
596
535
465
414
461
498
519
526
527
527
528
529
530
524
516
505
494
484
470
462
459
462
471
476
481
488
491
493
497
508
523
543
565
586
591
554
516
477
448
422
406
403
405
407
420
452
493
516
498
461
425
423
483
531
563
578
576
563
546
533
528
528
531
530
525
518
512
505
499
497
497
501
506
512
524
538
550
556
563
561
554
545
538
532
515
493
473
466
467
476
491
507
523
538
548
554
560
568
571
567
557
542
529
524
530
564
600
628
657
685
698
693
660
589
484
408
472
529
568
577
562
543
531
532
541
554
571
590
606
621
626
619
597
558
510
454
408
418
439
451
456
453
447
441
440
446
457
472
486
496
506
504
513
559
579
535
500
474
456
447
444
446
451
456
461
468
504
543
558
568
606
410
459
539
577
583
565
536
507
486
474
473
476
478
479
475
475
473
472
471
470
474
474
473
472
473
474
475
477
476
476
475
475
479
481
485
490
494
496
496
494
493
494
493
494
496
500
503
504
503
499
496
495
493
492
491
492
494
494
496
495
495
494
494
494
493
497
502
505
503
501
497
495
494
493
494
495
496
499
499
502
503
505
507
507
504
500
497
494
494
495
496
497
497
499
497
498
498
501
501
499
500
499
499
498
498
500
499
500
501
502
502
501
503
504
505
505
508
512
515
514
509
503
500
497
497
496
497
497
501
502
502
501
499
499
499
499
500
501
501
500
500
500
498
500
499
500
499
500
503
515
529
536
537
529
518
505
494
488
485
486
486
489
491
493
497
500
502
501
502
501
500
501
500
500
500
501
500
499
500
499
499
499
499
506
521
538
547
547
539
529
513
498
489
481
479
482
485
492
497
501
504
507
507
506
506
503
504
501
500
500
499
500
500
500
501
501
502
502
504
508
524
540
550
549
539
526
513
499
490
481
478
477
480
482
486
493
498
505
506
506
505
501
498
496
497
498
497
495
491
487
483
480
473
467
458
452
452
454
460
465
468
467
456
452
454
460
473
491
514
533
548
562
576
583
579
571
565
561
555
540
523
499
480
469
463
459
461
469
480
499
522
544
563
573
576
571
563
547
537
528
518
511
504
500
499
502
505
510
515
516
517
516
513
509
505
501
496
494
493
493
493
491
490
491
496
508
519
526
522
516
514
511
509
505
503
499
496
493
490
487
486
490
493
496
498
498
498
494
491
488
488
492
498
504
508
513
515
513
510
507
506
508
519
532
543
546
544
535
524
514
506
503
500
497
494
489
490
493
497
506
512
515
515
513
509
506
506
505
504
503
502
499
496
490
484
481
479
482
489
495
501
506
514
523
536
550
559
564
563
554
541
527
515
506
498
495
495
497
501
508
514
519
521
520
515
507
502
498
496
496
495
497
497
500
501
502
504
505
508
510
512
517
527
540
556
564
564
556
543
527
511
499
493
490
493
496
502
509
515
520
521
522
520
518
519
519
518
515
511
508
505
502
499
498
498
498
499
500
504
506
510
512
514
521
529
543
554
558
554
544
532
518
509
502
498
497
497
499
498
501
502
506
508
507
507
505
503
502
500
500
499
501
500
501
500
499
501
499
499
499
501
503
504
504
502
501
500
501
508
518
534
547
553
550
539
526
512
502
494
489
488
491
497
502
510
515
519
521
519
515
509
504
502
501
500
500
500
499
497
497
497
495
500
503
507
506
506
506
506
504
506
510
520
529
541
548
546
539
529
516
503
495
492
489
490
494
498
503
506
509
511
511
509
507
505
501
498
496
496
496
496
498
500
503
504
505
506
505
505
506
510
517
525
538
545
546
539
531
521
511
501
495
493
493
497
501
505
508
511
512
510
507
503
499
497
495
494
494
494
496
499
500
500
500
500
501
501
501
499
498
499
502
511
522
534
545
548
544
533
523
512
503
499
496
496
497
500
503
506
510
511
513
512
510
509
506
505
503
502
501
500
501
501
504
507
508
510
511
511
511
518
527
542
552
554
549
540
529
518
508
500
495
497
496
500
504
509
516
521
524
525
524
523
521
518
514
510
508
507
506
504
503
504
510
517
528
543
554
559
555
545
532
520
509
499
495
493
494
497
500
507
511
514
514
512
510
508
507
506
505
501
499
498
496
496
494
494
496
503
517
531
545
557
558
552
533
513
491
475
465
462
467
474
484
493
502
512
519
523
524
524
517
511
506
500
499
496
496
495
495
495
495
501
509
522
535
547
552
549
541
530
521
510
502
497
494
495
497
504
508
515
519
518
516
514
511
509
509
511
510
511
510
507
506
509
518
534
555
570
577
574
563
548
532
520
507
497
491
488
490
493
500
507
513
517
521
524
525
522
518
513
509
507
505
503
502
501
504
512
526
544
565
582
585
579
567
550
536
520
507
497
492
495
499
506
510
514
519
520
519
515
511
507
503
499
496
496
495
497
497
496
495
493
492
494
503
519
540
559
573
578
571
557
542
524
506
493
487
483
485
488
493
500
507
511
511
508
505
498
494
486
482
482
485
491
497
502
504
505
505
504
503
503
504
504
504
507
516
532
549
566
575
572
560
543
527
508
495
486
484
486
486
490
494
500
506
509
511
510
509
505
502
499
496
496
496
495
494
492
491
492
493
493
495
495
495
495
495
496
495
497
505
518
532
548
559
558
549
535
522
504
493
488
487
487
489
495
500
505
511
513
515
514
512
508
503
500
496
495
495
495
495
496
497
495
495
496
496
497
499
501
508
520
531
544
553
554
550
541
528
515
501
492
487
486
487
491
498
504
509
512
513
512
512
508
504
501
497
495
494
493
495
493
494
495
497
498
499
502
503
503
505
513
525
540
553
555
551
541
529
518
505
497
492
492
492
493
495
499
506
511
515
516
513
510
507
504
502
501
501
501
500
498
498
498
498
499
500
500
500
503
502
505
512
523
540
553
561
558
550
538
525
513
501
495
491
491
490
491
496
504
513
517
518
516
513
510
506
504
501
499
499
498
499
498
498
499
498
497
497
498
499
503
511
525
540
551
558
558
551
538
526
516
505
498
493
492
491
493
497
503
509
512
515
516
514
511
509
505
502
500
500
499
499
498
499
499
501
506
512
528
545
559
567
563
553
539
526
512
502
494
488
488
490
496
502
509
515
519
520
515
511
508
505
501
500
500
499
500
501
502
504
506
516
528
544
558
566
564
555
544
530
515
501
491
488
489
494
501
513
520
525
525
521
517
512
505
500
498
498
497
499
499
500
504
507
516
532
550
567
578
579
571
558
541
527
509
496
490
488
493
497
503
508
513
518
519
520
518
516
511
508
505
501
499
498
497
497
497
499
502
506
516
532
551
572
589
593
587
572
552
536
522
508
498
493
492
496
502
509
518
524
527
525
521
516
511
504
496
491
490
492
493
496
498
499
502
502
502
502
501
503
508
519
535
556
580
595
599
589
573
554
535
515
507
505
501
502
502
502
507
512
517
520
521
517
513
508
503
499
495
493
492
493
494
494
495
495
495
496
497
498
497
496
497
506
522
543
566
584
590
583
572
554
537
517
504
497
494
494
496
497
502
507
517
521
521
516
510
506
499
496
492
491
492
492
491
489
487
487
490
494
497
500
501
503
503
502
502
507
520
538
559
577
587
587
575
557
536
517
500
491
486
484
486
489
498
507
514
520
523
523
517
510
503
496
493
490
491
492
494
496
498
499
500
501
503
503
500
497
499
506
519
536
555
571
575
570
555
537
520
502
488
477
473
476
487
498
512
522
528
530
527
522
515
509
501
497
493
490
491
491
493
495
495
495
494
495
495
498
507
523
544
568
581
582
573
559
543
528
510
498
490
486
486
490
497
503
512
517
519
517
512
508
500
495
491
490
489
491
492
493
493
495
494
495
495
494
494
495
496
500
509
524
542
562
579
582
576
564
545
528
508
495
486
482
482
485
492
501
511
519
524
525
523
517
509
500
493
488
484
483
486
487
492
494
497
500
503
502
502
500
496
494
498
508
525
543
562
575
578
572
558
541
525
511
500
491
488
489
493
498
505
512
518
524
525
523
518
510
503
499
495
491
491
490
492
492
493
493
492
493
493
494
493
493
497
501
515
531
556
577
587
586
575
557
538
520
504
491
483
481
485
489
495
502
507
512
514
514
512
509
505
500
498
495
495
496
495
494
494
493
491
491
490
490
489
489
489
491
499
513
534
557
577
585
582
571
554
536
515
499
490
485
484
485
491
499
509
517
521
524
521
517
513
507
502
498
496
493
493
493
493
496
497
498
496
496
494
495
502
516
537
557
575
582
577
560
541
522
499
484
476
474
479
487
497
505
514
520
521
518
510
505
501
499
497
494
491
491
493
494
495
494
494
495
495
496
496
500
510
529
548
570
588
594
588
574
554
534
513
498
489
485
485
489
497
504
511
516
517
516
513
510
506
503
500
498
496
494
493
493
495
492
492
493
493
493
492
492
497
508
529
552
579
597
602
596
580
559
538
520
502
490
483
482
485
492
502
512
518
523
523
517
511
505
498
494
491
490
489
489
489
489
491
491
493
494
498
497
497
501
512
532
556
583
600
603
595
575
552
531
508
494
484
480
481
488
496
506
514
519
521
519
515
512
507
502
495
490
484
479
476
474
472
472
474
476
482
491
500
507
510
512
520
534
555
588
615
628
630
615
592
565
541
519
499
489
483
485
495
504
514
521
529
531
528
522
512
502
493
487
481
478
478
481
483
481
480
476
477
479
483
487
490
494
498
504
517
535
558
584
600
600
588
568
546
524
505
493
484
480
479
482
491
499
509
514
518
515
510
504
495
491
487
485
484
485
486
486
488
491
494
495
496
496
497
499
498
497
498
504
519
536
551
562
566
561
546
530
507
493
482
478
476
478
484
490
500
508
513
515
515
512
503
496
491
489
488
489
493
496
500
501
501
500
498
496
497
497
495
495
497
505
518
531
549
558
557
548
534
521
504
496
490
486
485
487
490
495
500
505
510
512
510
507
503
501
497
497
494
492
494
495
496
496
495
495
496
497
497
498
499
501
504
511
520
530
547
558
561
554
543
530
517
504
497
492
490
489
494
497
501
504
507
509
509
508
506
503
500
498
496
496
498
499
501
499
498
499
499
499
499
499
499
498
500
506
516
527
544
556
560
554
542
528
513
501
493
490
489
491
496
500
506
511
515
519
517
513
508
506
503
500
498
498
499
500
501
501
500
500
501
501
501
501
500
502
508
517
529
544
556
559
555
545
534
522
511
501
494
491
491
493
498
504
510
512
514
515
514
511
507
505
500
498
495
495
495
495
497
498
499
499
500
500
499
500
505
517
529
547
562
568
568
559
546
529
516
505
497
494
494
497
503
508
515
518
521
521
520
516
511
506
501
498
496
497
499
500
501
500
499
497
496
496
497
500
505
514
527
544
562
574
575
567
553
535
519
507
498
495
493
497
501
506
512
515
519
519
521
518
512
505
498
496
493
493
495
495
497
497
497
497
499
500
503
501
500
502
508
522
539
559
572
574
568
555
541
526
510
501
495
492
491
495
500
507
513
518
520
518
515
508
504
501
499
499
497
496
496
496
497
497
499
499
501
500
499
499
502
510
524
539
556
568
571
564
552
537
522
508
498
494
492
494
498
504
511
515
517
516
514
509
505
501
497
496
496
498
500
502
501
500
500
496
494
491
492
495
504
518
533
552
565
567
561
548
531
518
504
494
491
491
494
500
505
511
516
520
520
518
514
508
505
500
496
493
492
493
494
496
497
499
498
497
497
495
496
500
513
527
543
558
567
567
558
545
530
516
502
496
493
492
493
497
502
507
510
514
515
513
508
504
502
497
495
494
494
494
495
498
498
499
498
498
498
498
499
503
514
527
545
560
568
567
556
543
527
511
500
492
489
488
491
495
500
506
510
513
513
513
512
508
502
499
498
497
499
499
499
501
499
500
499
499
497
496
497
497
501
508
521
535
552
562
562
555
543
530
518
506
498
495
494
495
498
501
505
510
514
516
514
511
506
501
498
496
496
496
498
496
496
498
498
499
498
498
499
499
501
507
520
533
550
560
560
555
541
528
512
500
492
488
488
490
494
499
506
511
515
517
514
509
503
499
494
492
492
492
495
496
499
501
502
504
500
500
502
510
526
541
557
564
561
550
537
523
509
501
499
500
500
502
504
506
508
508
508
507
507
506
504
503
501
502
504
503
501
498
497
498
499
498
498
498
501
509
520
534
551
562
564
557
547
534
522
508
499
496
494
497
501
505
509
512
513
513
510
506
502
499
496
496
495
494
493
494
494
496
499
500
504
504
503
506
513
524
535
548
554
552
544
533
523
509
499
493
492
492
494
499
504
510
513
514
514
511
507
504
501
499
497
498
497
497
497
499
500
501
501
500
500
499
502
507
515
526
542
553
552
546
534
521
509
498
493
490
490
492
496
501
505
510
513
512
509
505
503
500
498
496
498
499
500
501
500
500
499
500
501
499
499
502
511
520
527
536
539
535
527
517
504
497
492
491
491
493
498
504
508
511
511
510
506
505
503
502
502
501
502
502
501
499
499
499
498
500
501
503
504
507
514
521
532
540
543
537
526
516
506
500
496
496
497
500
502
504
507
508
510
510
511
509
506
505
503
500
498
497
497
497
497
498
500
502
504
508
509
509
508
509
513
518
524
531
535
531
524
515
506
502
499
500
499
499
500
502
506
507
510
511
511
511
509
507
503
501
501
502
502
501
502
502
503
502
502
502
502
503
503
505
508
513
522
531
537
538
534
525
517
508
499
495
492
493
496
499
503
510
515
515
514
511
509
508
506
507
508
508
508
506
504
501
500
500
499
500
501
504
506
506
505
505
508
514
521
530
537
538
535
527
517
508
499
496
495
497
501
504
508
511
514
515
514
512
508
505
500
498
497
497
500
503
506
506
507
507
506
507
507
509
511
515
521
531
536
536
532
524
517
509
501
496
493
494
495
500
504
508
513
515
517
517
514
511
508
507
505
505
503
502
504
504
506
506
507
506
506
506
508
514
519
530
539
543
544
538
532
523
515
508
502
500
499
501
503
506
509
513
515
515
514
513
511
508
505
504
503
504
504
505
505
506
507
507
506
506
508
511
517
524
533
541
542
539
532
522
516
508
503
501
502
503
505
507
508
510
511
512
512
510
509
506
505
504
503
502
501
502
502
502
502
501
501
502
503
505
512
520
530
539
544
544
538
532
523
515
510
506
503
501
502
504
507
511
514
517
517
516
515
513
509
504
503
502
502
502
502
504
505
506
507
506
505
505
509
513
525
537
547
552
552
548
538
528
518
511
507
502
501
502
507
510
514
517
519
520
518
516
513
510
510
508
506
504
504
504
505
505
504
503
504
506
512
521
532
544
553
552
547
536
524
515
504
498
496
495
497
501
507
513
517
518
517
515
511
508
506
503
501
500
500
499
500
501
502
503
504
505
506
512
520
530
544
551
551
545
536
524
513
505
499
497
497
499
501
506
510
514
515
514
513
510
508
505
502
501
500
500
500
500
499
500
501
503
504
503
504
506
508
515
523
531
540
544
541
534
525
516
508
501
498
496
497
500
504
508
511
512
512
510
508
506
506
504
505
504
502
501
500
498
496
494
494
496
498
501
504
506
508
513
518
524
534
538
537
531
524
515
506
501
498
497
496
498
500
507
509
512
513
512
510
507
503
500
498
500
503
507
510
510
511
510
507
504
504
506
513
520
533
543
547
548
541
532
522
513
506
502
501
502
505
509
513
517
517
517
514
510
504
497
493
492
495
497
500
502
503
504
503
502
501
501
502
506
512
522
534
546
551
550
543
534
524
516
509
505
504
502
502
503
505
508
514
516
516
516
513
510
506
504
504
504
504
505
507
508
509
511
512
511
509
510
513
520
532
544
553
555
552
544
532
521
511
506
501
499
499
502
507
512
517
522
524
522
519
517
513
510
509
508
506
503
501
500
501
501
501
502
503
504
506
512
521
531
547
556
558
552
541
528
515
504
496
493
493
495
499
504
509
514
518
517
514
510
507
504
502
502
503
507
510
513
516
515
512
507
503
499
496
501
509
521
532
543
548
543
534
522
508
498
493
490
488
489
493
499
505
509
512
511
511
507
505
503
501
500
501
501
501
501
502
501
501
501
502
504
509
517
525
536
541
541
536
525
515
503
497
492
493
493
496
501
506
511
514
516
514
512
510
505
502
498
497
494
494
496
499
502
503
505
506
510
518
526
537
542
541
536
527
517
508
501
496
496
496
499
503
507
513
515
515
512
509
507
504
504
503
503
503
503
504
504
504
504
507
510
516
526
537
545
547
543
533
523
514
503
497
495
495
498
500
503
506
510
512
512
511
509
508
504
504
504
504
503
503
504
501
500
501
504
513
524
539
551
556
553
543
532
522
512
505
500
498
497
499
503
508
510
513
514
513
513
511
509
506
505
504
502
502
501
502
502
504
505
506
510
518
530
543
553
558
555
546
534
523
512
502
499
498
499
501
504
509
513
516
516
517
515
511
507
502
500
499
499
500
500
501
501
502
503
506
512
524
534
547
556
556
550
538
527
515
504
497
494
495
498
503
512
519
522
521
518
514
510
507
503
501
500
500
501
502
503
503
506
508
516
527
542
556
561
559
549
537
524
511
503
498
497
500
502
505
508
512
513
516
515
514
512
509
508
506
504
502
502
504
502
503
502
503
504
507
516
527
542
555
564
563
555
543
530
520
509
501
495
493
493
494
499
505
511
514
515
516
514
513
511
508
506
505
505
505
506
508
508
509
509
509
508
507
507
509
517
524
533
544
550
547
541
531
520
510
503
500
499
500
503
507
509
511
513
513
512
510
507
505
503
501
499
499
499
500
502
503
505
505
505
505
504
505
506
510
517
526
536
542
544
540
533
523
511
502
497
495
496
498
502
506
511
514
515
514
512
509
507
505
502
501
499
500
502
503
504
504
505
504
503
503
503
504
503
505
509
517
525
533
539
536
530
521
510
500
492
490
490
494
496
500
505
510
515
517
518
515
510
507
502
500
500
504
510
513
512
509
506
502
500
498
498
499
502
509
519
529
539
542
541
532
522
511
500
495
491
492
495
501
506
511
514
514
514
513
511
507
505
503
502
502
502
503
503
502
504
504
505
506
511
518
525
533
537
536
530
521
513
504
498
496
496
497
500
503
507
511
513
511
510
508
507
506
505
504
504
503
503
504
504
507
507
506
508
513
518
528
536
538
535
528
520
511
503
499
498
500
501
504
507
509
513
513
515
513
511
509
506
505
504
503
504
504
504
503
503
504
508
514
519
530
536
538
535
528
519
511
504
499
497
497
499
501
504
508
511
512
511
509
507
505
505
506
507
505
504
502
502
502
502
504
507
513
520
529
537
538
535
530
521
513
504
500
497
498
500
503
506
508
511
512
513
512
511
511
507
505
503
503
502
504
505
505
506
505
505
505
505
510
518
525
530
534
531
526
519
511
505
501
499
499
500
503
506
511
513
513
512
510
509
506
505
504
504
504
504
505
506
506
506
509
513
518
527
532
534
531
524
518
511
505
500
499
499
501
505
509
511
512
513
512
510
508
506
505
504
504
504
503
504
503
505
504
506
508
514
519
526
530
528
524
518
511
504
500
500
500
503
504
507
510
511
512
512
511
510
508
507
506
507
506
506
507
505
506
505
507
510
516
522
526
528
526
523
517
511
507
504
504
503
504
504
505
507
508
510
509
509
508
507
506
505
505
506
505
505
504
505
506
509
516
521
524
526
524
521
517
512
508
507
505
504
505
507
508
511
513
514
514
512
511
508
507
506
507
506
506
506
505
507
511
516
525
531
533
531
526
520
513
508
503
499
498
501
505
509
513
515
515
514
512
510
509
508
507
508
506
505
505
506
509
513
519
529
537
541
539
533
526
520
516
509
504
502
502
502
505
509
513
514
515
514
513
510
508
507
508
507
507
506
507
506
506
506
506
508
508
514
522
534
545
551
550
543
534
525
517
509
504
503
503
506
511
515
519
521
522
522
520
515
511
508
505
504
504
506
506
507
508
508
508
507
508
508
507
507
506
506
507
510
517
526
538
548
553
550
542
531
523
513
506
504
502
503
506
508
511
515
518
517
516
514
511
511
507
505
503
503
504
505
507
505
506
505
506
506
506
506
506
506
505
504
503
502
504
507
514
523
532
543
548
546
538
530
520
510
503
499
498
499
502
505
510
514
516
517
517
515
512
510
508
505
504
503
503
504
504
505
505
506
505
505
505
504
504
505
504
506
512
521
528
538
542
540
533
526
516
506
500
496
496
499
503
506
510
514
515
516
513
511
508
505
503
502
502
502
504
504
504
505
504
504
505
505
506
505
506
506
511
518
526
538
546
548
543
533
523
513
505
500
498
497
499
501
504
509
513
517
518
516
513
510
507
505
504
503
502
502
502
503
504
505
504
505
504
504
505
503
503
502
503
504
506
512
521
534
543
550
551
546
536
525
517
509
505
503
502
504
506
510
513
516
519
518
519
515
511
508
504
502
502
503
503
504
504
505
505
504
505
505
506
504
504
503
503
503
503
506
511
521
533
545
553
554
550
543
531
520
511
507
504
503
503
504
507
511
516
518
519
518
516
513
508
505
502
501
500
500
501
502
504
505
505
505
505
505
506
506
505
505
505
504
503
504
510
521
533
549
560
564
558
549
536
523
509
500
496
495
497
500
505
511
516
520
521
521
517
515
511
507
505
503
502
502
502
503
503
505
505
505
505
505
507
507
507
505
503
502
505
512
523
535
550
561
564
557
546
530
519
505
498
493
492
495
499
507
514
521
524
524
522
517
514
510
507
504
503
502
502
502
503
504
504
504
504
503
503
503
504
513
524
539
557
570
574
568
556
540
526
509
501
497
497
499
502
510
516
520
523
524
523
520
518
513
511
508
507
507
506
507
508
507
505
503
503
502
503
502
501
501
504
515
531
550
570
583
587
576
561
544
529
515
504
500
498
500
503
509
516
521
526
528
527
522
516
510
505
502
499
499
500
502
501
501
502
504
505
506
505
504
502
503
506
518
537
558
579
591
590
579
561
542
525
511
500
494
491
494
499
506
515
522
528
529
526
519
513
506
502
499
497
495
495
496
498
499
499
499
499
500
499
499
498
505
517
536
556
580
590
587
574
553
534
515
501
494
489
491
494
502
509
517
523
526
526
521
516
509
503
498
495
494
494
495
497
497
497
497
497
497
499
501
509
525
543
565
580
585
577
562
540
520
501
489
482
481
485
493
502
512
520
523
522
517
513
507
501
495
492
491
490
491
492
494
496
497
498
496
498
502
516
537
561
580
587
583
567
548
528
509
497
489
485
485
491
497
505
515
520
521
517
513
507
501
496
493
493
493
494
495
496
497
497
497
496
496
495
494
496
501
514
533
557
581
593
591
577
559
538
519
505
496
494
492
494
498
505
511
516
519
518
516
512
507
503
496
493
492
492
491
492
493
493
496
496
496
496
496
494
495
495
494
500
513
532
554
575
591
589
577
558
539
521
505
498
493
490
490
494
499
505
512
516
517
515
509
505
499
494
490
491
490
490
491
491
493
493
493
493
493
494
494
496
495
495
496
500
510
525
544
563
572
570
559
543
525
507
496
490
489
489
493
494
498
502
506
508
506
505
502
499
496
495
493
492
492
493
493
493
492
493
493
494
495
495
495
494
495
494
494
497
506
520
531
542
548
549
540
528
515
502
495
490
489
490
493
495
501
505
506
508
507
506
504
502
500
498
499
497
497
498
499
503
504
504
502
502
501
501
501
500
500
500
500
500
503
511
520
534
545
547
543
534
523
512
501
494
492
492
493
498
501
505
508
511
513
511
509
505
502
499
498
498
497
498
498
499
500
500
502
504
503
502
502
500
499
501
501
502
502
508
516
525
537
544
546
539
530
517
505
498
494
494
495
497
501
506
510
512
513
513
512
508
504
501
499
498
498
498
499
498
501
502
503
504
504
505
503
503
500
500
500
503
509
516
525
534
541
539
532
524
514
506
498
495
493
495
498
503
507
510
514
514
513
511
509
507
505
503
500
499
500
500
501
502
504
505
506
506
506
507
507
514
521
531
539
541
538
530
523
514
504
498
494
494
496
500
505
511
516
518
519
516
512
508
503
501
499
499
500
501
502
502
503
502
501
501
502
504
509
519
529
544
553
555
550
538
526
516
508
501
498
498
498
501
504
508
511
513
514
513
512
509
506
504
502
501
499
499
499
500
501
501
502
501
503
503
503
503
505
514
524
536
548
556
556
548
538
525
514
505
502
500
499
501
504
507
509
511
514
515
515
513
510
506
504
502
501
501
501
503
503
503
503
502
503
503
504
504
503
503
503
507
516
529
542
554
559
554
544
531
518
505
498
496
495
498
499
502
506
509
515
516
514
510
507
503
500
499
497
498
499
499
500
500
500
501
503
504
503
502
502
503
502
503
506
514
523
530
538
541
538
530
521
508
500
495
493
493
495
497
500
503
506
508
509
509
508
507
507
505
502
500
499
499
500
501
502
502
504
505
505
506
505
505
504
502
502
504
510
517
523
531
534
530
523
516
504
499
497
497
497
497
499
501
505
508
510
511
510
509
507
507
505
506
506
505
504
503
502
502
504
504
506
507
507
510
514
518
526
531
530
525
519
512
504
499
496
497
499
501
503
507
510
513
514
515
513
510
508
506
504
503
503
503
504
504
505
505
506
506
507
506
507
511
515
524
531
532
531
525
519
512
505
502
501
500
502
503
504
506
508
510
511
512
510
508
507
505
505
504
503
505
505
504
504
506
506
507
507
506
507
507
509
512
518
527
533
536
532
526
518
512
505
501
500
500
502
504
506
508
509
511
513
513
511
509
507
506
506
505
505
505
505
506
506
506
506
507
507
507
506
506
505
506
508
513
519
528
534
536
532
526
519
512
505
500
500
500
502
504
507
509
511
513
513
513
512
510
508
508
507
505
505
504
504
505
505
506
505
507
507
507
508
507
509
508
508
508
510
516
522
530
534
536
532
525
519
511
506
505
504
504
505
507
509
512
514
516
516
515
513
511
509
506
505
506
506
506
506
506
506
506
506
507
507
507
507
506
505
506
506
509
513
519
527
532
533
531
528
522
516
511
507
506
505
507
508
510
510
511
513
514
515
513
512
510
509
509
507
506
505
505
506
507
506
505
506
506
507
507
508
508
507
508
507
510
513
524
533
537
538
535
531
526
519
512
508
503
501
502
503
506
510
513
516
516
516
514
512
510
508
507
506
506
506
505
505
506
508
508
507
506
505
508
513
521
533
545
550
549
543
534
525
516
509
503
500
500
502
506
510
514
518
519
520
518
516
512
510
506
505
504
503
503
504
505
506
507
507
507
507
506
509
516
526
539
549
557
558
554
545
535
526
519
514
511
508
507
508
512
516
520
520
520
517
515
513
509
507
505
504
503
504
504
504
503
505
507
508
507
507
507
511
518
533
549
560
565
562
553
540
528
517
507
500
498
499
500
505
510
514
519
521
522
519
517
513
511
507
503
502
501
501
503
503
505
504
504
503
503
503
503
507
511
521
534
552
564
569
565
554
539
526
511
503
497
497
497
502
506
510
515
518
521
520
518
513
509
505
502
500
498
498
499
500
499
499
498
498
499
499
500
500
501
502
504
511
523
535
551
562
564
557
546
532
517
505
497
494
493
496
499
504
510
517
519
519
517
514
509
506
503
501
500
499
500
499
501
501
501
501
501
500
500
501
505
515
526
538
550
556
553
544
532
519
508
499
493
491
492
496
501
507
511
514
516
514
512
509
506
506
504
503
500
500
499
499
499
499
500
500
500
500
501
505
512
525
536
545
548
543
533
520
503
489
482
479
480
485
490
497
504
511
516
517
515
512
510
506
504
502
500
498
496
497
498
499
502
504
505
505
506
506
506
508
513
523
539
556
568
573
569
559
547
531
517
503
498
498
504
515
524
532
535
534
531
525
518
514
510
502
496
492
489
489
489
490
493
500
509
518
524
526
526
524
518
517
521
534
553
571
583
584
576
561
545
530
517
509
508
509
510
512
515
519
523
524
523
520
517
511
506
501
497
496
496
495
494
494
494
495
495
496
497
498
498
498
498
499
504
519
538
557
571
575
570
555
538
519
502
493
488
488
492
497
503
511
517
519
520
518
514
509
504
500
497
496
497
498
498
499
501
500
499
497
496
495
494
496
502
516
535
556
575
582
576
560
544
526
508
497
490
488
489
495
501
509
515
519
522
521
518
515
509
505
500
498
496
497
498
499
499
498
499
498
